t,r(t)
0.0,100.0
0.0625,81.59472541595504
0.125,64.413582687814
0.1875,49.36286805531013
0.25,36.89208267458095
0.3125,27.024291348677167
0.375,19.49502358670703
0.4375,13.906374882930336
0.5,9.841300205743796
0.5625,6.926872402421564
0.625,4.858308491766527
0.6875,3.400091230170357
0.75,2.3767267982817724
0.8125,1.6605525589946135
0.875,1.160172440769584
0.9375,0.8108436702842268
1.0,0.5670214463059633
