t,V(t)
0.0,1.0
0.0769230769230769,0.950320920044396
0.1538461538461538,0.9032173315093532
0.2307692307692307,0.8578421917064313
0.3076923076923077,0.8134329873988843
0.3846153846153846,0.7692641972303621
0.4615384615384615,0.7246074540179314
0.5384615384615384,0.6786945547413435
0.6153846153846154,0.630679611288571
0.6923076923076923,0.5795971215693224
0.7692307692307693,0.5243128904521793
0.8461538461538461,0.4634648290298845
0.9230769230769232,0.3953911748802156
1.0,0.3180455625964274
